Estatística K de Ripley 

Intervalo de Confiança (%): 95
Número de Simulações: 100
Raio Inicial (km): 0.5
Passo (km): 0.5

r(km)			L			UCL			LCL
   0.500		  +562.372		   +75.827		   -57.576
   1.000		 +1329.271		  +103.555		   -80.977
   1.500		 +1650.030		  +137.877		  -119.927
   2.000		 +2001.051		  +133.920		  -118.077
   2.500		 +2148.800		  +152.971		  -125.668
   3.000		 +2376.390		  +143.312		  -111.798
   3.500		 +2531.406		  +147.139		  -135.222
   4.000		 +2869.135		  +162.552		  -135.166
   4.500		 +3099.763		  +167.791		  -137.887
   5.000		 +3398.154		  +186.016		  -169.914
   5.500		 +3802.306		  +199.984		  -171.450
   6.000		 +3917.638		  +172.107		  -179.124
   6.500		 +4133.698		  +214.265		  -166.903
   7.000		 +4353.972		  +190.029		  -193.830
   7.500		 +4608.323		  +223.221		  -185.364
   8.000		 +4943.471		  +218.389		  -208.461
   8.500		 +5320.312		  +203.775		  -220.511
   9.000		 +5627.477		  +247.979		  -242.760
   9.500		 +5852.538		  +270.828		  -236.695
  10.000		 +6125.460		  +284.781		  -280.965
  10.500		 +6296.956		  +282.052		  -280.502
  11.000		 +6597.071		  +308.973		  -292.567
  11.500		 +6955.242		  +343.609		  -280.994
  12.000		 +7301.076		  +438.585		  -285.093
  12.500		 +7586.849		  +418.686		  -299.285
  13.000		 +7799.748		  +455.410		  -322.391
  13.500		 +8204.455		  +464.226		  -327.458
  14.000		 +8388.374		  +468.541		  -313.647
  14.500		 +8632.530		  +478.097		  -338.375
  15.000		 +8845.576		  +474.541		  -345.730
  15.500		 +9043.814		  +525.490		  -328.971
  16.000		 +9208.312		  +452.790		  -325.272
  16.500		 +9326.502		  +423.661		  -403.160
  17.000		 +9372.552		  +434.092		  -312.678
  17.500		 +9500.490		  +495.717		  -344.021
  18.000		 +9614.197		  +559.488		  -369.247
  18.500		 +9828.426		  +565.600		  -411.652
  19.000		 +9947.287		  +585.941		  -424.070
  19.500		+10235.523		  +644.481		  -456.741
  20.000		+10367.590		  +626.355		  -463.540
  20.500		+10479.240		  +639.979		  -477.223
  21.000		+10492.308		  +705.866		  -477.153
  21.500		+10439.999		  +726.547		  -522.211
  22.000		+10407.920		  +735.980		  -521.096
  22.500		+10359.584		  +786.208		  -605.216
  23.000		+10320.009		  +843.125		  -632.284
  23.500		+10208.298		  +837.875		  -703.935
  24.000		+10144.628		  +826.056		  -678.629
  24.500		+10068.156		  +857.633		  -687.718
  25.000		 +9984.532		  +847.887		  -722.183
  25.500		 +9968.191		  +907.707		  -756.371
  26.000		 +9903.024		  +896.989		  -826.192
  26.500		 +9950.129		  +960.170		  -845.043
  27.000		 +9921.965		  +996.151		  -848.539
  27.500		 +9995.762		 +1064.318		  -871.477
  28.000		 +9969.873		 +1077.803		  -923.567
  28.500		 +9988.948		 +1074.004		  -937.860
  29.000		 +9863.013		 +1081.812		  -960.954
  29.500		 +9712.754		 +1126.034		  -962.480
  30.000		 +9619.785		 +1112.747		  -987.333
  30.500		 +9497.005		 +1148.665		  -943.730
  31.000		 +9422.301		 +1168.564		  -931.009
  31.500		 +9245.021		 +1153.113		  -928.972
  32.000		 +8984.813		 +1149.166		  -954.213
  32.500		 +8749.121		 +1105.158		  -963.717
  33.000		 +8441.358		 +1106.762		  -971.217
  33.500		 +8162.003		 +1127.689		  -978.573
  34.000		 +7961.060		 +1151.889		 -1001.254
  34.500		 +7658.491		 +1109.503		  -941.578
  35.000		 +7469.197		 +1087.734		  -971.285
  35.500		 +7135.455		 +1100.362		  -951.726
  36.000		 +6861.766		 +1080.486		  -935.465
  36.500		 +6495.748		 +1047.330		  -872.869
  37.000		 +6186.890		 +1047.408		  -840.130
  37.500		 +5815.548		 +1022.575		  -830.485
  38.000		 +5530.342		  +969.851		  -845.108
  38.500		 +5282.720		  +947.175		  -827.795
  39.000		 +4946.851		  +924.904		  -803.312
  39.500		 +4654.118		  +922.805		  -806.024
  40.000		 +4405.040		  +963.113		  -754.565
  40.500		 +4149.542		  +938.969		  -808.266
  41.000		 +3860.517		  +891.530		  -717.837
  41.500		 +3671.629		  +821.513		  -679.737
  42.000		 +3498.767		  +758.473		  -669.900
  42.500		 +3320.602		  +690.546		  -614.419
  43.000		 +3106.785		  +645.727		  -569.674
  43.500		 +2935.506		  +631.533		  -555.763
  44.000		 +2775.870		  +630.970		  -585.055
  44.500		 +2615.060		  +602.913		  -555.284
  45.000		 +2525.247		  +585.868		  -520.269
  45.500		 +2381.841		  +590.009		  -534.916
  46.000		 +2254.628		  +522.549		  -536.779
  46.500		 +2085.521		  +473.088		  -513.065
  47.000		 +1919.742		  +470.250		  -507.958
  47.500		 +1748.113		  +457.652		  -489.654
  48.000		 +1579.039		  +417.727		  -477.151
  48.500		 +1442.998		  +419.739		  -492.579
  49.000		 +1301.173		  +379.840		  -496.830
  49.500		 +1156.763		  +324.786		  -472.245
  50.000		 +1016.691		  +317.895		  -438.124
  50.500		  +839.606		  +278.129		  -374.934
  51.000		  +672.390		  +230.342		  -314.835
  51.500		  +561.074		  +205.343		  -285.707
  52.000		  +439.382		  +194.730		  -208.489
  52.500		  +357.335		  +151.070		  -223.076
  53.000		  +253.178		  +144.635		  -152.555
  53.500		  +179.660		  +103.994		  -110.665
  54.000		   +76.839		   +61.448		   -72.144
  54.500		   +13.341		   +21.471		   -27.321
  55.000		    -0.604		    +3.870		    -8.705
  55.500		    +0.000		    +0.000		    +0.000
  56.000		    -0.000		    -0.000		    -0.000
  56.500		    +0.000		    +0.000		    +0.000
  57.000		    -0.000		    -0.000		    -0.000
  57.500		    -0.000		    -0.000		    -0.000
  58.000		    +0.000		    +0.000		    +0.000
  58.500		    -0.000		    -0.000		    -0.000
  59.000		    +0.000		    +0.000		    +0.000
  59.500		    +0.000		    +0.000		    +0.000
  60.000		    +0.000		    +0.000		    +0.000
  60.500		    -0.000		    -0.000		    -0.000
  61.000		    -0.000		    -0.000		    -0.000
  61.500		    +0.000		    +0.000		    +0.000
  62.000		    -0.000		    -0.000		    -0.000
  62.500		    -0.000		    -0.000		    -0.000
  63.000		    +0.000		    +0.000		    +0.000
  63.500		    +0.000		    +0.000		    +0.000
  64.000		    -0.000		    -0.000		    -0.000
  64.500		    +0.000		    +0.000		    +0.000
  65.000		    +0.000		    +0.000		    +0.000
  65.500		    -0.000		    -0.000		    -0.000
  66.000		    +0.000		    +0.000		    +0.000
  66.500		    +0.000		    +0.000		    +0.000
  67.000		    +0.000		    +0.000		    +0.000
  67.500		    -0.000		    -0.000		    -0.000
